389
390
392
394
397
399
401
405
408
411
414
419
422
424
426
427
426
423
418
411
404
396
388
383
376
371
367
363
360
359
359
358
357
357
357
357
358
358
358
359
361
362
363
364
365
366
366
366
368
369
369
369
369
368
370
369
369
368
367
366
366
369
367
366
365
367
366
366
365
367
366
368
368
368
366
365
367
367
366
365
366
369
367
369
370
371
370
368
370
372
371
371
371
370
370
369
370
371
371
373
373
372
372
373
372
372
374
376
376
376
378
379
380
380
381
387
392
394
391
385
381
382
382
381
375
373
372
373
371
370
370
367
349
329
325
344
402
512
618
636
534
444
384
355
355
360
371
375
374
373
372
371
371
373
374
374
375
377
378
378
380
380
381
382
383
386
387
388
389
393
395
400
402
404
406
409
414
418
420
422
424
425
424
422
417
410
403
396
390
382
376
370
365
361
358
358
359
358
357
357
357
357
358
358
359
359
358
359
359
359
359
360
362
364
365
367
366
365
366
366
365
367
367
367
366
366
366
367
364
366
366
365
364
364
365
365
363
364
366
365
365
364
366
366
366
367
368
367
367
368
368
367
367
367
368
368
369
371
369
370
370
370
371
373
371
371
369
367
368
370
371
372
373
374
372
372
374
375
376
380
383
387
392
394
393
385
381
381
380
378
375
373
372
371
373
373
373
369
353
334
327
339
381
476
576
624
550
452
397
358
351
356
360
368
369
369
368
369
370
371
370
369
371
373
374
375
377
378
379
381
384
385
385
387
390
391
394
398
403
405
406
408
412
415
418
421
423
424
422
422
418
410
402
397
390
383
376
372
367
364
360
360
360
359
359
360
358
357
360
362
361
361
363
363
363
364
364
363
364
364
365
366
365
365
367
367
368
368
369
367
365
365
363
362
361
363
364
365
367
367
365
366
364
366
367
366
366
367
365
364
364
366
366
367
367
367
367
367
367
368
367
368
369
370
370
369
368
368
370
371
374
375
379
379
381
388
391
388
382
377
375
375
375
372
371
371
371
369
369
370
367
350
329
324
338
382
474
575
624
555
454
399
355
346
352
360
367
370
370
371
370
371
369
369
370
373
375
377
376
378
378
379
380
384
386
387
389
392
395
396
400
403
406
408
410
413
417
418
420
424
426
425
424
418
410
402
395
389
382
375
370
367
364
362
363
362
359
359
360
359
358
360
361
362
362
362
365
364
363
364
366
367
367
367
368
368
368
370
370
368
367
368
368
368
367
369
367
367
365
367
366
366
367
369
368
369
369
369
369
368
370
370
368
366
367
368
369
371
372
371
371
370
371
372
371
370
372
372
370
371
372
371
371
370
373
373
373
375
378
380
382
384
383
389
392
390
385
380
379
380
379
376
373
374
373
371
372
373
371
361
339
325
330
363
448
566
643
599
488
413
361
349
352
360
368
368
368
367
367
368
368
370
371
374
377
377
378
379
381
382
383
386
390
390
391
396
397
399
402
405
408
412
416
420
421
424
424
426
426
427
426
422
415
407
400
393
384
378
374
370
366
363
363
363
361
361
363
363
363
362
363
364
364
365
367
366
367
369
371
370
369
369
369
368
368
369
369
370
369
368
370
368
368
368
368
368
369
369
368
369
368
367
367
367
368
368
368
370
370
370
370
370
371
370
370
372
373
373
372
371
372
372
370
372
372
371
371
374
374
374
373
374
372
371
371
374
375
375
374
375
374
372
376
379
379
380
382
386
392
393
390
385
380
378
379
378
375
372
372
373
372
372
372
371
360
339
328
334
370
461
576
650
592
483
409
361
353
356
366
371
372
372
370
371
370
371
371
371
374
376
376
376
378
380
382
383
384
386
387
389
392
394
396
398
402
403
408
412
415
417
420
422
424
425
426
424
421
415
406
399
391
384
379
375
370
364
362
362
362
360
359
359
359
359
360
361
361
361
362
365
365
364
363
364
365
365
365
367
367
366
369
369
367
366
366
366
366
366
367
367
366
364
362
362
364
363
363
364
364
364
365
365
364
364
364
364
365
367
365
364
365
366
366
366
368
369
368
369
368
369
368
368
369
370
369
368
370
372
371
372
371
370
370
371
372
371
370
371
372
373
372
373
374
377
379
381
383
385
391
394
392
386
383
382
382
380
375
372
371
372
371
372
372
368
354
332
321
332
374
467
571
628
562
459
398
355
350
354
360
368
370
369
368
368
370
370
370
372
373
373
374
376
376
379
381
384
384
385
386
388
391
394
397
400
401
404
407
410
412
416
419
422
424
426
426
425
419
415
408
401
394
387
381
374
367
363
363
362
361
360
358
359
360
360
362
361
361
363
363
364
364
365
367
365
365
366
366
366
368
367
367
367
367
367
368
367
367
367
367
367
367
367
365
365
365
367
366
366
364
365
365
365
363
364
365
367
368
368
366
366
366
368
370
371
369
368
369
369
370
369
369
369
373
371
369
370
372
373
375
377
381
383
388
394
393
388
383
380
378
376
372
370
367
367
368
370
370
369
364
346
328
327
348
407
509
597
611
516
429
379
347
347
351
362
370
370
369
369
370
369
370
374
374
375
376
379
379
380
380
383
384
385
388
391
393
394
398
401
403
406
409
412
413
417
419
421
424
424
424
424
420
414
407
399
393
386
381
376
371
367
366
365
363
362
361
360
359
360
361
360
360
361
364
364
365
367
367
367
367
368
368
367
367
367
368
368
368
370
369
369
370
370
368
367
367
366
367
368
369
368
370
369
369
369
367
366
369
368
369
370
371
370
370
370
370
370
371
373
373
373
373
374
374
374
374
374
373
374
374
376
376
377
378
382
382
384
386
394
396
393
387
384
382
381
381
379
376
373
375
375
373
374
373
362
341
328
337
371
457
570
646
596
484
413
366
354
357
366
374
375
375
374
373
374
374
376
376
379
379
381
381
384
385
387
387
387
389
393
394
396
399
401
404
407
410
414
415
419
421
423
424
426
428
426
423
420
415
406
397
389
383
376
371
367
364
363
361
361
360
359
360
360
360
361
361
362
362
361
364
365
364
364
364
365
366
367
368
369
368
368
370
372
370
369
371
371
369
369
370
369
367
367
367
367
368
368
369
367
365
364
365
366
366
367
368
366
365
366
366
366
366
369
370
371
371
371
370
370
369
370
367
367
368
370
369
370
372
372
371
370
369
369
369
371
375
379
380
380
382
387
392
391
389
384
380
380
379
377
373
373
372
369
368
368
368
364
346
327
323
343
402
513
614
634
530
437
375
349
349
354
365
370
370
370
367
368
368
370
369
370
372
375
375
376
379
379
379
380
381
382
384
389
392
392
396
398
404
406
407
411
415
417
420
422
424
424
422
419
416
409
399
391
383
376
369
366
361
360
359
358
355
355
356
356
354
354
356
357
356
355
355
356
356
357
360
361
362
362
362
362
363
364
366
366
366
366
365
365
363
366
367
365
365
365
363
362
361
361
363
363
365
365
364
363
363
364
365
365
364
366
365
365
365
367
366
368
368
369
367
368
370
369
369
369
369
369
370
369
369
370
370
372
372
370
369
369
369
370
372
376
378
379
383
391
393
389
384
381
380
377
375
373
370
369
368
370
369
370
367
353
331
323
338
380
473
576
630
562
454
397
357
347
351
360
369
370
369
369
369
368
368
371
373
375
378
378
380
380
381
383
385
387
388
391
394
396
398
403
404
405
408
413
415
418
421
426
426
427
429
430
427
422
416
409
400
393
387
382
375
371
367
366
365
363
363
363
363
363
365
364
367
367
367
367
368
369
370
370
371
371
371
370
371
374
375
374
373
375
373
372
370
370
371
371
372
373
371
369
369
370
370
371
372
372
371
371
371
371
370
370
371
371
370
370
371
373
373
372
373
372
372
373
373
371
372
374
375
375
374
375
374
375
376
376
375
376
376
378
378
377
377
377
376
376
377
377
377
378
379
382
384
385
386
389
394
399
398
391
384
382
384
383
380
377
375
374
374
374
374
374
366
346
331
333
358
435
550
644
625
509
426
368
353
356
362
369
373
373
371
371
372
374
373
373
375
378
378
378
379
381
382
383
385
387
387
390
394
395
396
400
404
406
407
410
413
416
419
421
423
425
424
424
422
414
407
400
393
387
380
373
368
364
360
358
357
357
358
358
355
355
356
358
357
358
357
357
358
358
358
358
357
356
358
360
361
360
362
363
362
362
366
365
364
362
364
364
364
362
362
361
361
362
361
362
362
364
364
364
362
362
361
361
361
363
362
362
362
363
363
363
364
364
362
363
363
363
362
363
363
363
364
366
366
364
363
365
368
368
368
369
369
368
367
367
368
368
366
366
366
366
367
367
367
367
366
366
366
369
371
375
375
376
380
387
391
388
383
379
376
376
375
372
369
368
368
369
368
367
367
358
338
324
328
358
440
558
644
607
491
415
364
352
352
362
369
369
367
370
369
369
370
372
374
374
376
379
378
378
378
381
382
383
384
386
387
389
392
394
396
398
401
404
408
411
415
420
420
422
424
424
424
420
416
409
400
392
385
378
373
370
367
364
360
359
359
358
357
358
358
357
357
359
359
358
358
361
362
366
366
368
367
367
366
366
367
367
369
371
371
371
370
368
367
368
368
367
366
366
367
367
366
366
369
367
367
368
367
366
365
367
368
367
367
367
366
367
365
367
367
367
368
369
370
369
370
370
368
369
370
371
371
370
370
372
371
371
372
374
373
371
371
373
372
373
374
372
372
374
373
373
373
373
376
377
378
381
382
383
388
394
395
389
384
382
380
377
376
373
372
371
373
371
371
371
364
343
327
327
351
420
523
608
605
501
421
373
348
352
356
363
368
370
369
367
367
368
368
368
370
372
373
375
378
379
379
380
381
382
384
388
390
391
393
395
397
403
406
410
412
415
418
420
420
422
424
424
422
416
411
404
397
389
382
373
369
366
366
365
360
359
359
359
359
359
359
359
360
361
363
364
365
364
364
364
364
366
367
368
367
369
368
367
367
368
368
370
369
370
370
370
370
371
370
370
369
370
369
368
366
367
367
369
370
372
370
371
370
370
370
371
372
371
370
371
373
372
372
372
374
373
372
373
374
374
373
374
374
373
375
375
375
375
374
375
375
374
375
377
381
382
383
385
388
394
394
390
383
380
379
380
378
377
375
374
373
372
373
371
366
350
332
325
340
392
499
610
649
554
454
386
349
348
355
366
372
373
373
371
372
373
372
374
374
375
377
379
380
383
384
385
386
389
392
393
395
397
398
401
404
407
409
412
415
418
421
423
424
427
427
427
425
421
415
407
400
390
383
379
373
368
362
360
359
358
358
359
358
358
358
360
361
361
360
362
362
364
365
365
365
365
366
368
368
367
368
369
368
367
368
368
368
367
367
368
368
368
368
367
367
367
368
367
367
367
367
366
366
367
368
370
370
369
369
368
369
370
369
368
369
371
371
370
371
372
372
372
372
373
372
372
372
374
373
373
374
373
374
373
373
373
374
373
374
374
376
379
382
382
383
387
394
395
393
387
382
381
382
380
376
373
371
372
371
369
369
368
354
332
322
334
378
476
593
657
579
470
392
351
347
352
363
370
368
368
366
369
369
370
371
372
373
374
376
377
377
378
380
382
383
384
387
388
390
393
397
398
402
405
409
412
415
419
422
425
428
430
429
427
423
418
409
400
393
388
381
375
371
369
365
363
364
364
365
364
363
363
363
363
364
365
365
364
364
364
365
367
369
370
368
369
371
370
370
372
373
372
372
372
372
371
369
370
371
372
372
372
371
370
370
371
371
371
371
372
372
372
371
373
371
370
373
373
372
373
374
375
373
374
376
375
375
373
373
373
372
373
374
373
372
373
375
374
374
373
375
376
377
376
375
375
375
377
378
377
376
378
381
383
384
384
388
395
397
394
387
383
383
382
379
377
375
373
372
372
374
374
369
352
334
326
339
394
503
608
637
541
448
385
353
353
359
370
373
373
373
372
371
371
372
373
374
376
377
377
378
380
380
380
382
386
388
388
391
393
393
396
399
403
406
410
414
417
419
422
425
426
425
426
426
421
415
407
399
390
384
378
373
370
367
365
362
360
359
359
360
360
359
361
361
361
361
362
363
363
364
367
366
366
366
366
366
367
366
366
365
365
366
365
365
365
365
365
364
364
365
366
366
367
367
366
366
365
364
365
366
367
367
366
365
365
365
364
364
367
368
367
365
366
365
366
367
368
367
367
367
368
369
370
370
370
370
370
370
371
370
371
372
372
373
376
378
379
378
382
389
389
384
379
377
375
372
371
369
366
365
366
366
365
364
360
340
320
319
340
401
507
596
611
511
425
373
345
346
349
357
363
363
362
362
363
361
362
364
364
364
366
367
369
370
372
376
377
377
377
380
382
384
386
389
392
394
397
400
